# Vsd      IVsd
# Temperature[K]: 0.5
# Gate voltages[ev]: [0.0, 0.75, 1.5, 2.25, 3.0]
-0.0050000000000    -0.0000014747468    -0.0000017828511    -0.0000029612976     0.0000000000000     0.0000000000000
-0.0049899899900    -0.0000014747450    -0.0000017828511    -0.0000029612976     0.0000000000000     0.0000000000000
-0.0049799799800    -0.0000014747427    -0.0000017828511    -0.0000029612976     0.0000000000000     0.0000000000000
-0.0049699699700    -0.0000014747399    -0.0000017828511    -0.0000029612976     0.0000000000000     0.0000000000000
-0.0049599599600    -0.0000014747362    -0.0000017828511    -0.0000029612976     0.0000000000000     0.0000000000000
-0.0049499499499    -0.0000014747316    -0.0000017828511    -0.0000029612976     0.0000000000000     0.0000000000000
-0.0049399399399    -0.0000014747258    -0.0000017828511    -0.0000029612976     0.0000000000000     0.0000000000000
-0.0049299299299    -0.0000014747185    -0.0000017828511    -0.0000029612976     0.0000000000000     0.0000000000000
-0.0049199199199    -0.0000014747093    -0.0000017828511    -0.0000029612976     0.0000000000000     0.0000000000000
-0.0049099099099    -0.0000014746977    -0.0000017828511    -0.0000029612976     0.0000000000000     0.0000000000000
-0.0048998998999    -0.0000014746831    -0.0000017828511    -0.0000029612976     0.0000000000000     0.0000000000000
-0.0048898898899    -0.0000014746646    -0.0000017828511    -0.0000029612976     0.0000000000000     0.0000000000000
-0.0048798798799    -0.0000014746413    -0.0000017828511    -0.0000029612976     0.0000000000000     0.0000000000000
-0.0048698698699    -0.0000014746119    -0.0000017828511    -0.0000029612976     0.0000000000000     0.0000000000000
-0.0048598598599    -0.0000014745748    -0.0000017828511    -0.0000029612976     0.0000000000000     0.0000000000000
-0.0048498498498    -0.0000014745280    -0.0000017828511    -0.0000029612976     0.0000000000000     0.0000000000000
-0.0048398398398    -0.0000014744689    -0.0000017828511    -0.0000029612976     0.0000000000000     0.0000000000000
-0.0048298298298    -0.0000014743945    -0.0000017828511    -0.0000029612976     0.0000000000000     0.0000000000000
-0.0048198198198    -0.0000014743006    -0.0000017828511    -0.0000029612976     0.0000000000000     0.0000000000000
-0.0048098098098    -0.0000014741821    -0.0000017828511    -0.0000029612976     0.0000000000000     0.0000000000000
-0.0047997997998    -0.0000014740328    -0.0000017828511    -0.0000029612976     0.0000000000000     0.0000000000000
-0.0047897897898    -0.0000014738444    -0.0000017828511    -0.0000029612976     0.0000000000000     0.0000000000000
-0.0047797797798    -0.0000014736070    -0.0000017828511    -0.0000029612976     0.0000000000000     0.0000000000000
-0.0047697697698    -0.0000014733077    -0.0000017828511    -0.0000029612976     0.0000000000000     0.0000000000000
-0.0047597597598    -0.0000014729304    -0.0000017828511    -0.0000029612976     0.0000000000000     0.0000000000000
-0.0047497497497    -0.0000014724549    -0.0000017828511    -0.0000029612976     0.0000000000000     0.0000000000000
-0.0047397397397    -0.0000014718560    -0.0000017828511    -0.0000029612976     0.0000000000000     0.0000000000000
-0.0047297297297    -0.0000014711019    -0.0000017828511    -0.0000029612976     0.0000000000000     0.0000000000000
-0.0047197197197    -0.0000014701526    -0.0000017828511    -0.0000029612976     0.0000000000000     0.0000000000000
-0.0047097097097    -0.0000014689584    -0.0000017828511    -0.0000029612976     0.0000000000000     0.0000000000000
-0.0046996996997    -0.0000014674574    -0.0000017828511    -0.0000029612976     0.0000000000000     0.0000000000000
-0.0046896896897    -0.0000014655723    -0.0000017828511    -0.0000029612976     0.0000000000000     0.0000000000000
-0.0046796796797    -0.0000014632076    -0.0000017828511    -0.0000029612976     0.0000000000000     0.0000000000000
-0.0046696696697    -0.0000014602457    -0.0000017828511    -0.0000029612976     0.0000000000000     0.0000000000000
-0.0046596596597    -0.0000014565425    -0.0000017828511    -0.0000029612976     0.0000000000000     0.0000000000000
-0.0046496496496    -0.0000014519231    -0.0000017828511    -0.0000029612976     0.0000000000000     0.0000000000000
-0.0046396396396    -0.0000014461771    -0.0000017828511    -0.0000029612976     0.0000000000000     0.0000000000000
-0.0046296296296    -0.0000014390551    -0.0000017828511    -0.0000029612976     0.0000000000000     0.0000000000000
-0.0046196196196    -0.0000014302662    -0.0000017828511    -0.0000029612976     0.0000000000000     0.0000000000000
-0.0046096096096    -0.0000014194789    -0.0000017828511    -0.0000029612976     0.0000000000000     0.0000000000000
-0.0045995995996    -0.0000014063265    -0.0000017828511    -0.0000029612976     0.0000000000000     0.0000000000000
-0.0045895895896    -0.0000013904196    -0.0000017828511    -0.0000029612976     0.0000000000000     0.0000000000000
-0.0045795795796    -0.0000013713685    -0.0000017828511    -0.0000029612976     0.0000000000000     0.0000000000000
-0.0045695695696    -0.0000013488174    -0.0000017828511    -0.0000029612976     0.0000000000000     0.0000000000000
-0.0045595595596    -0.0000013224897    -0.0000017828511    -0.0000029612976     0.0000000000000     0.0000000000000
-0.0045495495495    -0.0000012922452    -0.0000017828511    -0.0000029612976     0.0000000000000     0.0000000000000
-0.0045395395395    -0.0000012581382    -0.0000017828511    -0.0000029612976     0.0000000000000     0.0000000000000
-0.0045295295295    -0.0000012204693    -0.0000017828511    -0.0000029612976     0.0000000000000     0.0000000000000
-0.0045195195195    -0.0000011798125    -0.0000017828511    -0.0000029612976     0.0000000000000     0.0000000000000
-0.0045095095095    -0.0000011370061    -0.0000017828511    -0.0000029612976     0.0000000000000     0.0000000000000
-0.0044994994995    -0.0000010930976    -0.0000017828511    -0.0000029612976     0.0000000000000     0.0000000000000
-0.0044894894895    -0.0000010492480    -0.0000017828511    -0.0000029612976     0.0000000000000     0.0000000000000
-0.0044794794795    -0.0000010066123    -0.0000017828511    -0.0000029612976     0.0000000000000     0.0000000000000
-0.0044694694695    -0.0000009662207    -0.0000017828511    -0.0000029612976     0.0000000000000     0.0000000000000
-0.0044594594595    -0.0000009288867    -0.0000017828511    -0.0000029612976     0.0000000000000     0.0000000000000
-0.0044494494494    -0.0000008951568    -0.0000017828511    -0.0000029612976     0.0000000000000     0.0000000000000
-0.0044394394394    -0.0000008653051    -0.0000017828510    -0.0000029612976     0.0000000000000     0.0000000000000
-0.0044294294294    -0.0000008393642    -0.0000017828510    -0.0000029612976     0.0000000000000     0.0000000000000
-0.0044194194194    -0.0000008171772    -0.0000017828510    -0.0000029612976     0.0000000000000     0.0000000000000
-0.0044094094094    -0.0000007984575    -0.0000017828509    -0.0000029612976     0.0000000000000     0.0000000000000
-0.0043993993994    -0.0000007828438    -0.0000017828509    -0.0000029612976     0.0000000000000     0.0000000000000
-0.0043893893894    -0.0000007699451    -0.0000017828508    -0.0000029612976     0.0000000000000     0.0000000000000
-0.0043793793794    -0.0000007593737    -0.0000017828507    -0.0000029612976     0.0000000000000     0.0000000000000
-0.0043693693694    -0.0000007507658    -0.0000017828506    -0.0000029612976     0.0000000000000     0.0000000000000
-0.0043593593594    -0.0000007437938    -0.0000017828505    -0.0000029612976     0.0000000000000     0.0000000000000
-0.0043493493493    -0.0000007381710    -0.0000017828503    -0.0000029612976     0.0000000000000     0.0000000000000
-0.0043393393393    -0.0000007336520    -0.0000017828501    -0.0000029612976     0.0000000000000     0.0000000000000
-0.0043293293293    -0.0000007300303    -0.0000017828498    -0.0000029612976     0.0000000000000     0.0000000000000
-0.0043193193193    -0.0000007271341    -0.0000017828495    -0.0000029612976     0.0000000000000     0.0000000000000
-0.0043093093093    -0.0000007248223    -0.0000017828491    -0.0000029612976     0.0000000000000     0.0000000000000
-0.0042992992993    -0.0000007229795    -0.0000017828485    -0.0000029612976     0.0000000000000     0.0000000000000
-0.0042892892893    -0.0000007215124    -0.0000017828479    -0.0000029612976     0.0000000000000     0.0000000000000
-0.0042792792793    -0.0000007203453    -0.0000017828470    -0.0000029612976     0.0000000000000     0.0000000000000
-0.0042692692693    -0.0000007194176    -0.0000017828459    -0.0000029612976     0.0000000000000     0.0000000000000
-0.0042592592593    -0.0000007186806    -0.0000017828445    -0.0000029612976     0.0000000000000     0.0000000000000
-0.0042492492492    -0.0000007180953    -0.0000017828428    -0.0000029612976     0.0000000000000     0.0000000000000
-0.0042392392392    -0.0000007176308    -0.0000017828406    -0.0000029612976     0.0000000000000     0.0000000000000
-0.0042292292292    -0.0000007172621    -0.0000017828379    -0.0000029612976     0.0000000000000     0.0000000000000
-0.0042192192192    -0.0000007169696    -0.0000017828344    -0.0000029612976     0.0000000000000     0.0000000000000
-0.0042092092092    -0.0000007167376    -0.0000017828300    -0.0000029612976     0.0000000000000     0.0000000000000
-0.0041991991992    -0.0000007165536    -0.0000017828245    -0.0000029612976     0.0000000000000     0.0000000000000
-0.0041891891892    -0.0000007164077    -0.0000017828176    -0.0000029612976     0.0000000000000     0.0000000000000
-0.0041791791792    -0.0000007162920    -0.0000017828088    -0.0000029612976     0.0000000000000     0.0000000000000
-0.0041691691692    -0.0000007162002    -0.0000017827977    -0.0000029612976     0.0000000000000     0.0000000000000
-0.0041591591592    -0.0000007161275    -0.0000017827837    -0.0000029612976     0.0000000000000     0.0000000000000
-0.0041491491491    -0.0000007160698    -0.0000017827661    -0.0000029612976     0.0000000000000     0.0000000000000
-0.0041391391391    -0.0000007160241    -0.0000017827439    -0.0000029612976     0.0000000000000     0.0000000000000
-0.0041291291291    -0.0000007159878    -0.0000017827158    -0.0000029612976     0.0000000000000     0.0000000000000
-0.0041191191191    -0.0000007159591    -0.0000017826804    -0.0000029612976     0.0000000000000     0.0000000000000
-0.0041091091091    -0.0000007159363    -0.0000017826358    -0.0000029612976     0.0000000000000     0.0000000000000
-0.0040990990991    -0.0000007159182    -0.0000017825795    -0.0000029612976     0.0000000000000     0.0000000000000
-0.0040890890891    -0.0000007159039    -0.0000017825085    -0.0000029612976     0.0000000000000     0.0000000000000
-0.0040790790791    -0.0000007158926    -0.0000017824189    -0.0000029612976     0.0000000000000     0.0000000000000
-0.0040690690691    -0.0000007158836    -0.0000017823059    -0.0000029612976     0.0000000000000     0.0000000000000
-0.0040590590591    -0.0000007158764    -0.0000017821635    -0.0000029612976     0.0000000000000     0.0000000000000
-0.0040490490490    -0.0000007158708    -0.0000017819838    -0.0000029612976     0.0000000000000     0.0000000000000
-0.0040390390390    -0.0000007158663    -0.0000017817572    -0.0000029612976     0.0000000000000     0.0000000000000
-0.0040290290290    -0.0000007158627    -0.0000017814716    -0.0000029612976     0.0000000000000     0.0000000000000
-0.0040190190190    -0.0000007158599    -0.0000017811115    -0.0000029612976     0.0000000000000     0.0000000000000
-0.0040090090090    -0.0000007158577    -0.0000017806576    -0.0000029612976     0.0000000000000     0.0000000000000
-0.0039989989990    -0.0000007158559    -0.0000017800857    -0.0000029612976     0.0000000000000     0.0000000000000
-0.0039889889890    -0.0000007158545    -0.0000017793653    -0.0000029612976     0.0000000000000     0.0000000000000
-0.0039789789790    -0.0000007158534    -0.0000017784581    -0.0000029612976     0.0000000000000     0.0000000000000
-0.0039689689690    -0.0000007158525    -0.0000017773163    -0.0000029612976     0.0000000000000     0.0000000000000
-0.0039589589590    -0.0000007158518    -0.0000017758800    -0.0000029612976     0.0000000000000     0.0000000000000
-0.0039489489489    -0.0000007158513    -0.0000017740747    -0.0000029612976     0.0000000000000     0.0000000000000
-0.0039389389389    -0.0000007158508    -0.0000017718077    -0.0000029612976     0.0000000000000     0.0000000000000
-0.0039289289289    -0.0000007158505    -0.0000017689642    -0.0000029612976     0.0000000000000     0.0000000000000
-0.0039189189189    -0.0000007158502    -0.0000017654031    -0.0000029612976     0.0000000000000     0.0000000000000
-0.0039089089089    -0.0000007158500    -0.0000017609513    -0.0000029612976     0.0000000000000     0.0000000000000
-0.0038988988989    -0.0000007158498    -0.0000017553992    -0.0000029612976     0.0000000000000     0.0000000000000
-0.0038888888889    -0.0000007158497    -0.0000017484946    -0.0000029612976     0.0000000000000     0.0000000000000
-0.0038788788789    -0.0000007158496    -0.0000017399392    -0.0000029612976     0.0000000000000     0.0000000000000
-0.0038688688689    -0.0000007158495    -0.0000017293854    -0.0000029612976     0.0000000000000     0.0000000000000
-0.0038588588589    -0.0000007158494    -0.0000017164376    -0.0000029612975     0.0000000000000     0.0000000000000
-0.0038488488488    -0.0000007158494    -0.0000017006598    -0.0000029612975     0.0000000000000     0.0000000000000
-0.0038388388388    -0.0000007158493    -0.0000016815905    -0.0000029612975     0.0000000000000     0.0000000000000
-0.0038288288288    -0.0000007158493    -0.0000016587705    -0.0000029612975     0.0000000000000     0.0000000000000
-0.0038188188188    -0.0000007158493    -0.0000016317837    -0.0000029612975     0.0000000000000     0.0000000000000
-0.0038088088088    -0.0000007158492    -0.0000016003133    -0.0000029612975     0.0000000000000     0.0000000000000
-0.0037987987988    -0.0000007158492    -0.0000015642080    -0.0000029612975     0.0000000000000     0.0000000000000
-0.0037887887888    -0.0000007158492    -0.0000015235523    -0.0000029612975     0.0000000000000     0.0000000000000
-0.0037787787788    -0.0000007158492    -0.0000014787248    -0.0000029612975     0.0000000000000     0.0000000000000
-0.0037687687688    -0.0000007158492    -0.0000014304289    -0.0000029612975     0.0000000000000     0.0000000000000
-0.0037587587588    -0.0000007158492    -0.0000013796770    -0.0000029612975     0.0000000000000     0.0000000000000
-0.0037487487487    -0.0000007158492    -0.0000013277220    -0.0000029612975     0.0000000000000     0.0000000000000
-0.0037387387387    -0.0000007158492    -0.0000012759413    -0.0000029612975     0.0000000000000     0.0000000000000
-0.0037287287287    -0.0000007158492    -0.0000012256936    -0.0000029612974     0.0000000000000     0.0000000000000
-0.0037187187187    -0.0000007158492    -0.0000011781812    -0.0000029612974     0.0000000000000     0.0000000000000
-0.0037087087087    -0.0000007158492    -0.0000011343436    -0.0000029612974     0.0000000000000     0.0000000000000
-0.0036986986987    -0.0000007158492    -0.0000010948022    -0.0000029612973     0.0000000000000     0.0000000000000
-0.0036886886887    -0.0000007158492    -0.0000010598581    -0.0000029612973     0.0000000000000     0.0000000000000
-0.0036786786787    -0.0000007158492    -0.0000010295305    -0.0000029612972     0.0000000000000     0.0000000000000
-0.0036686686687    -0.0000007158492    -0.0000010036201    -0.0000029612971     0.0000000000000     0.0000000000000
-0.0036586586587    -0.0000007158492    -0.0000009817792    -0.0000029612970     0.0000000000000     0.0000000000000
-0.0036486486486    -0.0000007158492    -0.0000009635765    -0.0000029612969     0.0000000000000     0.0000000000000
-0.0036386386386    -0.0000007158492    -0.0000009485489    -0.0000029612967     0.0000000000000     0.0000000000000
-0.0036286286286    -0.0000007158492    -0.0000009362391    -0.0000029612965     0.0000000000000     0.0000000000000
-0.0036186186186    -0.0000007158492    -0.0000009262201    -0.0000029612962     0.0000000000000     0.0000000000000
-0.0036086086086    -0.0000007158492    -0.0000009181081    -0.0000029612958     0.0000000000000     0.0000000000000
-0.0035985985986    -0.0000007158492    -0.0000009115678    -0.0000029612954     0.0000000000000     0.0000000000000
-0.0035885885886    -0.0000007158492    -0.0000009063126    -0.0000029612948     0.0000000000000     0.0000000000000
-0.0035785785786    -0.0000007158492    -0.0000009021016    -0.0000029612941     0.0000000000000     0.0000000000000
-0.0035685685686    -0.0000007158492    -0.0000008987348    -0.0000029612931     0.0000000000000     0.0000000000000
-0.0035585585586    -0.0000007158492    -0.0000008960475    -0.0000029612920     0.0000000000000     0.0000000000000
-0.0035485485485    -0.0000007158492    -0.0000008939058    -0.0000029612905     0.0000000000000     0.0000000000000
-0.0035385385385    -0.0000007158492    -0.0000008922006    -0.0000029612887     0.0000000000000     0.0000000000000
-0.0035285285285    -0.0000007158492    -0.0000008908444    -0.0000029612864     0.0000000000000     0.0000000000000
-0.0035185185185    -0.0000007158492    -0.0000008897663    -0.0000029612835     0.0000000000000     0.0000000000000
-0.0035085085085    -0.0000007158492    -0.0000008889099    -0.0000029612798     0.0000000000000     0.0000000000000
-0.0034984984985    -0.0000007158492    -0.0000008882298    -0.0000029612751     0.0000000000000     0.0000000000000
-0.0034884884885    -0.0000007158492    -0.0000008876900    -0.0000029612692     0.0000000000000     0.0000000000000
-0.0034784784785    -0.0000007158492    -0.0000008872617    -0.0000029612618     0.0000000000000     0.0000000000000
-0.0034684684685    -0.0000007158492    -0.0000008869218    -0.0000029612525     0.0000000000000     0.0000000000000
-0.0034584584585    -0.0000007158492    -0.0000008866523    -0.0000029612407     0.0000000000000     0.0000000000000
-0.0034484484484    -0.0000007158492    -0.0000008864385    -0.0000029612259     0.0000000000000     0.0000000000000
-0.0034384384384    -0.0000007158492    -0.0000008862689    -0.0000029612071     0.0000000000000     0.0000000000000
-0.0034284284284    -0.0000007158492    -0.0000008861345    -0.0000029611835     0.0000000000000     0.0000000000000
-0.0034184184184    -0.0000007158492    -0.0000008860279    -0.0000029611536     0.0000000000000     0.0000000000000
-0.0034084084084    -0.0000007158492    -0.0000008859433    -0.0000029611160     0.0000000000000     0.0000000000000
-0.0033983983984    -0.0000007158492    -0.0000008858763    -0.0000029610685     0.0000000000000     0.0000000000000
-0.0033883883884    -0.0000007158492    -0.0000008858232    -0.0000029610086     0.0000000000000     0.0000000000000
-0.0033783783784    -0.0000007158492    -0.0000008857811    -0.0000029609330     0.0000000000000     0.0000000000000
-0.0033683683684    -0.0000007158492    -0.0000008857477    -0.0000029608377     0.0000000000000     0.0000000000000
-0.0033583583584    -0.0000007158492    -0.0000008857212    -0.0000029607175     0.0000000000000     0.0000000000000
-0.0033483483483    -0.0000007158492    -0.0000008857002    -0.0000029605658     0.0000000000000     0.0000000000000
-0.0033383383383    -0.0000007158492    -0.0000008856836    -0.0000029603745     0.0000000000000     0.0000000000000
-0.0033283283283    -0.0000007158492    -0.0000008856704    -0.0000029601332     0.0000000000000     0.0000000000000
-0.0033183183183    -0.0000007158492    -0.0000008856600    -0.0000029598289     0.0000000000000     0.0000000000000
-0.0033083083083    -0.0000007158492    -0.0000008856517    -0.0000029594452     0.0000000000000     0.0000000000000
